%time,field.x,field.y,field.z,field.w
1653386137484423168,-0.03466443882304095,0.06796132988202612,0.1007339133463549,-0.9919840286132025
1653386137516192015,-0.03380525755450403,0.0686188130810751,0.10104095718320699,-0.9919371895561327
1653386137550441835,-0.03283769954961754,0.06931442528950338,0.10139807193667222,-0.9918848859331411
1653386137582858600,-0.031873127089173545,0.06995760968967293,0.10171456640173804,-0.9918387891173501
1653386137616440793,-0.030918406334915043,0.0705684311735284,0.10201242442289832,-0.9917951471623454
1653386137647913361,-0.029913279206535453,0.07114536646122566,0.10232364016195994,-0.9917526935795109
1653386137682821199,-0.028836430921861788,0.07170199657903067,0.10264849647104157,-0.9917109307204919
1653386137714960891,-0.02789354340838314,0.07210988336747483,0.10291940871216182,-0.9916802459801208
1653386137747783133,-0.026811866632466947,0.07253475508138796,0.10325947276786912,-0.9916437436885626
1653386137780452018,-0.02583706718216674,0.07283528721908301,0.10357219578710336,-0.9916149792913456
1653386137816225548,-0.02476256207985809,0.07309304637979126,0.10390144287827169,-0.9915889835299585
1653386137845673299,-0.023868192789452167,0.07325820719191012,0.10420071889642446,-0.9915673222900507
1653386137880446814,-0.022824795437345297,0.07338498313982801,0.1045557009035109,-0.9915451469153516
1653386137914921882,-0.02187001699149169,0.07345108872494717,0.10488667440129734,-0.9915268152979767
1653386137945459375,-0.020954164564083763,0.07348092758150518,0.10524613900250013,-0.99150629170684
1653386137977573163,-0.0200794099055233,0.07345151393416541,0.10559787692873884,-0.9914891733078923
1653386138016318975,-0.019128303917637986,0.07336702948362372,0.10600509064396552,-0.9914707800694624
1653386138042831699,-0.018450231482269007,0.07328162335934121,0.1063125535205407,-0.9914570255941568
1653386138077632612,-0.017674925999899033,0.07314769355847223,0.10670839400919557,-0.9914385157769252
1653386138110762984,-0.017034449518945942,0.07299989906283025,0.10704774787335164,-0.9914240374035957
1653386138144511984,-0.01644419242261493,0.07284184311035581,0.10742476369833781,-0.9914048489755387
1653386138175705793,-0.01594986438074072,0.07267616027181416,0.10778935032343423,-0.9913855120543337
1653386138212597738,-0.015519658276680264,0.0724777931942621,0.1081836480569624,-0.9913639129975187
1653386138242854614,-0.015182753579613854,0.07230698607606925,0.10857219198166579,-0.9913391260747415
1653386138275912711,-0.014948027609617252,0.07214970306877286,0.10896427681616366,-0.9913111333963726
1653386138307253884,-0.014805907813348892,0.07199828073643101,0.10935790502742077,-0.9912809295415878
1653386138343227468,-0.014738294974016054,0.07186244584848796,0.10980463024479065,-0.9912424096631139
1653386138374116212,-0.014744632486806054,0.07175180322610475,0.11019032962229558,-0.9912075291301823
1653386138407655023,-0.014832973538211714,0.0716489637821214,0.1106313862817262,-0.9911645197717414
1653386138440698429,-0.014989702373347683,0.07156524212296206,0.11107378420290503,-0.991118731235308
1653386138473994192,-0.015229312131054405,0.07150800084223877,0.11151291329388302,-0.9910698986631934
1653386138505281005,-0.01551140590654991,0.07147927052662391,0.11195148758554063,-0.9910181504892674
1653386138540646929,-0.015884579995007024,0.07147843165072429,0.11245315814857859,-0.9909554990762934
1653386138573894655,-0.016291654595154477,0.07152599058830153,0.11291777279380277,-0.9908926234704754
1653386138606322272,-0.016751067511755,0.07157669607152096,0.11337016151705503,-0.9908296446888831
1653386138637827759,-0.017238708317068394,0.0716850621025681,0.11385549628311459,-0.9907577931931879
1653386138671680233,-0.017735708058608638,0.07182067254094358,0.11432547643599561,-0.9906850766480279
1653386138703914130,-0.01827904084389562,0.07198985524719595,0.11481526219873461,-0.9906062754563747
1653386138737955559,-0.018871777821203188,0.07220887225223747,0.11534401720301357,-0.9905177900802176
1653386138771236865,-0.019428580789964033,0.07244280189716103,0.1158220048984836,-0.9904341643355565
1653386138803850910,-0.020001336523268774,0.07271332164275239,0.11630772640186587,-0.9903460163862878
1653386138835810280,-0.02053843082845216,0.07301274187586237,0.11678662684343144,-0.9902566314715628
1653386138872144059,-0.021157969184578317,0.0733604821637603,0.11733541872010167,-0.9901530081307957
1653386138903854761,-0.021738979637120577,0.07370997212134099,0.11783320621830962,-0.9900553480924799
1653386138935080430,-0.02229206350284527,0.07405989763808651,0.11833671561793041,-0.9899568764362325
1653386138967638520,-0.0228681933644197,0.07442276699060188,0.11885263070142621,-0.9898547113900406
1653386139004018439,-0.02345008288872874,0.07481221157414304,0.1193926987932657,-0.9897467403769299
1653386139033682094,-0.023941321466080263,0.07513056877386765,0.11985867686005414,-0.9896545398994185
1653386139067640818,-0.024494809633089927,0.07548744509741541,0.12040087934184107,-0.9895480171206525
1653386139101428126,-0.024973227932473533,0.07579254055148212,0.12089466432390955,-0.9894525298473867
1653386139133952872,-0.025424542701249934,0.0760896547861823,0.12140345943382341,-0.9893559304418467
1653386139165859610,-0.02585293323573328,0.07635199672791533,0.12190200604089041,-0.9892633114403748
1653386139200235989,-0.026278326556597113,0.07661179726805177,0.12241253905730193,-0.9891689705779738
1653386139233929668,-0.02664609188116389,0.07683256638898474,0.12290147568430948,-0.9890813767350805
1653386139265914508,-0.026969967521770284,0.07702146603109952,0.12337963451458939,-0.9889983722986309
1653386139297718386,-0.027283330925903647,0.07721050005802928,0.12386218233818708,-0.988914717415409
1653386139333912458,-0.02757099293241384,0.07739509572232921,0.12438714913852916,-0.9888264138037787
1653386139365731556,-0.02781248233073698,0.07755163273524728,0.12487433693910166,-0.9887459785307446
1653386139397673864,-0.0280382165684911,0.07770334865743132,0.12538011642785984,-0.9886636811492653
1653386139429874355,-0.028205143041214218,0.07784238488729796,0.1258712801030607,-0.9885855824693678
1653386139463045101,-0.028354624564317688,0.07797438240929025,0.12638113573809384,-0.9885058520227668
1653386139496481714,-0.028464952906324746,0.07809938914567395,0.12686224292258808,-0.9884311828305314
1653386139530093567,-0.028563099555354698,0.07822584346395987,0.12738372499944878,-0.9883512803469259
1653386139563844758,-0.02860795123933851,0.07833109617182976,0.12788759430001018,-0.9882765745086561
1653386139596403560,-0.028628986364810007,0.07841245226934247,0.1283586025910649,-0.9882084484610019
1653386139627783856,-0.028610815280557887,0.07848082193685578,0.1288211713088923,-0.9881433538002987
1653386139663919953,-0.02854820775988292,0.0785250115791666,0.12932649514096806,-0.9880756449000974
1653386139693772622,-0.028489197815313907,0.07855537615139224,0.12974399976168383,-0.9880201986859345
1653386139728134020,-0.028368306665004762,0.07856503553831866,0.1302451993709416,-0.987956963844401
1653386139760736669,-0.02823862752973301,0.07853799277471275,0.1307034010165039,-0.9879023152968491
1653386139793972632,-0.028076968374620953,0.07848056135323812,0.13115813499202916,-0.9878512180293062
1653386139825974023,-0.02787602489953529,0.07840609938516638,0.13160367701081438,-0.9878035649926746
1653386139861621867,-0.027642690204457438,0.07829184002475338,0.13211959504034415,-0.9877503136269683
1653386139893968279,-0.02741351514316969,0.07818145897104399,0.13258935826263635,-0.9877024960665818
1653386139926008702,-0.027145785052442625,0.07805198257242284,0.1330568081436198,-0.9876572685790515
1653386139958308916,-0.026860417444010676,0.0779066140228498,0.13352681314012044,-0.9876131163764844
1653386139993992748,-0.026543199185075802,0.0777528221572659,0.1340223880361669,-0.9875666846996637
1653386140023856372,-0.026258251693872775,0.07763215842192128,0.13444661142033243,-0.9875261317425101
1653386140058296878,-0.025919798880938105,0.07750433946199488,0.13495273436875005,-0.987476076103583
1653386140090022627,-0.02560992675738254,0.07741716773365645,0.13541475419752097,-0.9874277483123541
1653386140123970464,-0.025292489764657186,0.07733765042232989,0.135872936516041,-0.9873792194041587
1653386140155983152,-0.024983136601588952,0.07729106302277977,0.1363276958747045,-0.9873280578408824
1653386140190071695,-0.024659572665773254,0.07726486065987136,0.1368171942817764,-0.9872705313803378
1653386140223346383,-0.024350888965178643,0.07726307544262745,0.13727159662544697,-0.9872152552202853
1653386140255944397,-0.024068770663407884,0.07727956220030106,0.13771581318985948,-0.9871590137066764
1653386140287525087,-0.023788659142868318,0.07732026290354871,0.13816655021201618,-0.9870996307583246
1653386140323958464,-0.023521322146058263,0.07738615555076912,0.13865440293000258,-0.9870324649583205
1653386140354527925,-0.023301981900397506,0.07746179417919356,0.13907960951128168,-0.9869719095801276
1653386140387970833,-0.023067973120234116,0.07756919944099348,0.13956342768539026,-0.986900672594214
1653386140419933869,-0.022882476126383618,0.07767785967419104,0.140012093495607,-0.9868328916679558
1653386140454595983,-0.02270210180753192,0.0777964943597412,0.14046814273672587,-0.986762900049931
1653386140484916291,-0.022549533990242596,0.07791322462303621,0.14090560818788023,-0.9866948147866526
1653386140522473894,-0.022403213720479726,0.07805395775434688,0.14137869756460425,-0.9866193488721033
1653386140554483241,-0.022280809615594734,0.07818656060814463,0.14182233365762087,-0.9865479476128105
1653386140586251317,-0.0221693091782131,0.0783272648794719,0.14227852543125485,-0.9864736096359445
1653386140618031040,-0.02208201767904367,0.07847623109496497,0.1427279818685216,-0.9863987980731175
1653386140654679019,-0.022009189456877614,0.07863056641551855,0.1432170264951465,-0.9863172476067293
1653386140683489498,-0.02195518309156588,0.07877132991292181,0.14361710457395754,-0.9862490429870938
1653386140718111258,-0.021892316990819387,0.07896347052462355,0.14410550809702277,-0.9861638298556581
1653386140749881139,-0.021847090569055067,0.07912500692257166,0.1445514999466745,-0.9860866096729723
1653386140783517427,-0.021824793176758936,0.07929347947391215,0.1450052176014418,-0.9860069519958115
1653386140815996579,-0.0218236071388696,0.07946213457828104,0.14543451421658526,-0.9859301706582964
1653386140850076258,-0.02182662899099232,0.0796522378526411,0.14592294440346354,-0.9858425906647469
1653386140883514202,-0.021863258423048905,0.07981408851875589,0.14636604264955133,-0.9857629992874335
1653386140922564124,-0.021889498533105917,0.07995938286910217,0.1467879439632433,-0.9856879051972816
1653386140949210597,-0.021923019333013282,0.08009459238840272,0.14723513745503125,-0.9856094823975965
1653386140984074042,-0.021977112957883158,0.08021160980111841,0.14768799346924993,-0.9855310044560629
1653386141016134862,-0.022032547586483486,0.08030123869869954,0.1481083968478228,-0.9854593754658136
1653386141049063325,-0.02209772153618025,0.08035627490884707,0.14855983330845485,-0.9853854756962107
1653386141079427751,-0.022164610775086926,0.0803792522101874,0.14898692942930913,-0.9853176141237636
1653386141114441602,-0.022238493460481373,0.0803932890534219,0.1494071629185894,-0.9852511700842579
1653386141146047186,-0.02230383792205751,0.08038016783077304,0.14986772935470366,-0.9851808113902283
1653386141179529945,-0.022364048054229174,0.08034047043199899,0.15037156650609312,-0.9851059080890219
1653386141216324201,-0.02240901743787011,0.08029619547294956,0.15085092569010117,-0.9850352050299922
1653386141246224141,-0.022435948336845465,0.08024534208290171,0.1512704799563463,-0.9849743931646149
1653386141278271456,-0.022454976351186585,0.08018598789551731,0.1517322282578103,-0.9849077684180418
1653386141314338657,-0.022461415532284312,0.0801401144806935,0.15220822538045248,-0.9848379069622781
1653386141343362050,-0.022458560373445013,0.08010974840639766,0.1526363453448878,-0.9847741808942658
1653386141378351468,-0.022434082347264222,0.08008961927852933,0.15311010349095122,-0.9847028287976258
1653386141410547447,-0.022405992326442168,0.08007825890060664,0.15353631430440923,-0.9846380269668302
1653386141443549628,-0.022361477862910442,0.08007582637496366,0.15399342164400398,-0.9845678505966591
1653386141475469241,-0.022308058402121814,0.08007916698161029,0.1544263827254192,-0.9845009750448199
1653386141510020396,-0.022255550386246617,0.08008567311900798,0.15488850019720996,-0.9844290365205302
1653386141543304156,-0.02220903288544335,0.08009013618776911,0.15532609010339138,-0.98436077465374
1653386141576214367,-0.022174460856258627,0.08008461909399746,0.15573510709611765,-0.9842973755365114
1653386141607580367,-0.02219463817473426,0.08005882363892278,0.15614204830072587,-0.9842345470193059
1653386141643455783,-0.022374689308394022,0.08019246025893441,0.15655776735573318,-0.984153549034174
1653386141674227228,-0.022760940179103326,0.08050340513165331,0.15682916953677895,-0.9840760910350259
1653386141707203469,-0.02336316196026971,0.0809442272937062,0.15708779553108854,-0.9839845624938564
1653386141739927462,-0.023924382092908522,0.08127723335182876,0.15732835171167958,-0.983905191076778
1653386141772536208,-0.024503793690087875,0.08152084705367804,0.15756702178918397,-0.9838325819136766
1653386141805626839,-0.02502988840983804,0.08164953632829648,0.15776224599290167,-0.9837773791071027
1653386141840548029,-0.025599810103214157,0.08170431822861653,0.15798384356104295,-0.9837226028099366
1653386141872476343,-0.02611070921415352,0.08168607497713894,0.1581737715035249,-0.9836801685647188
1653386141906229678,-0.02655982034642797,0.08159618868003146,0.1583524340430621,-0.9836468596852714
1653386141936499096,-0.026987196752851036,0.0814538664465429,0.15854750804312945,-0.9836155989743378
1653386141972558286,-0.02737054402935686,0.08125044670195052,0.15874830860561567,-0.9835894431850755
1653386142002933909,-0.027631319051290227,0.08104255421796884,0.1589235859503242,-0.9835709981704439
1653386142036514058,-0.02792249523283915,0.08082173287333179,0.15910388925741042,-0.9835517953714942
1653386142069993261,-0.028226770339016632,0.08071561774559699,0.15923429071101652,-0.9835307209995705
1653386142103590214,-0.028611372437560702,0.08061226560291254,0.1593075381332803,-0.9835162226905655
1653386142136312079,-0.029055398999802626,0.08075079772243784,0.1591451856027919,-0.9835181250773191
1653386142170486379,-0.0297190584649499,0.0811958604232111,0.1582079768639877,-0.9836128536526427
1653386142202824535,-0.029900752484926706,0.08149267069582422,0.15655944613464884,-0.9838465477144842
1653386142236073818,-0.030076131660556206,0.0818003111632453,0.15448301639630446,-0.9841438579003743
1653386142268120764,-0.030353529024935957,0.08221931489433493,0.1516870752927953,-0.9845352602741847
1653386142303324610,-0.03048010661061897,0.08268277564533762,0.14828201357883541,-0.9850111502727237
1653386142333091972,-0.030400524576637476,0.08304016384123193,0.14509758994380167,-0.9854576747314859
1653386142368499088,-0.030433036816024942,0.08350959505078147,0.14112051122219632,-0.9859944113010961
1653386142400884122,-0.03035830943610466,0.08387642843330002,0.1373249546258679,-0.9865013809612526
1653386142433226799,-0.03019218701719138,0.0842344441292216,0.13332230858912936,-0.9870248995328462
1653386142465390012,-0.030088252605286168,0.08454532559586919,0.12939000443182452,-0.987524689173988
1653386142500958616,-0.029978547549701164,0.08483442249112882,0.12509500730270662,-0.9880564996979387
1653386142533241537,-0.029843824810002726,0.08510999916160071,0.12111962070678284,-0.9885320792181036
1653386142565256297,-0.029711667979818293,0.08541201116826644,0.1173249799456701,-0.9889675698498901
1653386142596974981,-0.029594688354504035,0.08569234876376813,0.11388201086044925,-0.9893492120515026
1653386142633270400,-0.029605431063037504,0.08588804904233123,0.11120824059110601,-0.9896360385050178
1653386142663769032,-0.029496184551090036,0.08597813409161363,0.11005507654035657,-0.9897603829628404
1653386142696745792,-0.029662022284142272,0.08615480599660245,0.10978114916103626,-0.9897704850754971
1653386142730164025,-0.029735261295601053,0.08630130190922855,0.11043324195106441,-0.9896829788354614
1653386142764269660,-0.029884610753892295,0.08652366481146388,0.111933998285695,-0.9894904473998016
1653386142795510678,-0.030193213635736772,0.08680029407388697,0.11407786608567733,-0.9892119688258789
1653386142830389826,-0.030510255915580375,0.08710094349572964,0.11711029775326337,-0.9888213833075523
1653386142864296335,-0.03079037268002334,0.08743710807906013,0.12045589808651747,-0.9883810407414575
1653386142895502599,-0.031045191505661828,0.0877970498213064,0.12407179973159593,-0.9878937506829438
1653386142928158061,-0.031382387711954216,0.08822206351372767,0.12807729007017404,-0.9873338954067954
1653386142964276109,-0.03173902657876357,0.08870434832100821,0.13260166615122915,-0.9866817982078597
1653386142992953546,-0.032055199219807394,0.08902455916294054,0.1366130350573559,-0.9860953152313625
1653386143028172081,-0.03250638939493006,0.08940478434855408,0.14134312401094662,-0.9853792368823893
1653386143061110264,-0.03288090090848522,0.08953594182298191,0.1455707015797748,-0.9847392204634127
1653386143092950461,-0.03315515996842676,0.08972060876173067,0.14923988671088423,-0.984163809508059
1653386143125174488,-0.033483828124334786,0.09000495944208735,0.15195186938710065,-0.9837116294523176
1653386143160171447,-0.0336105656164221,0.09044073714016686,0.15347828161937244,-0.983430333076854
1653386143193007163,-0.033584068591970495,0.09099930225280307,0.1537718959738667,-0.9833338402266623
1653386143225245498,-0.033316524748565945,0.09158433799081898,0.1532754452000304,-0.983366135329153
1653386143257145635,-0.033096033072339576,0.09228256337085879,0.15210212479080043,-0.9834904802420317
1653386143292988330,-0.03286139325194069,0.09314032588197912,0.15019953164122268,-0.9837098704510883
1653386143323726603,-0.03248865655737466,0.09389945353628927,0.14809592323305015,-0.9839689920634865
1653386143357584257,-0.03209790675289534,0.09490865101422305,0.14514949388471843,-0.9843239795767209
1653386143390430767,-0.0317163113727246,0.09587709101459391,0.1421007697092862,-0.9846872753618359
1653386143424394427,-0.031218494923297795,0.09688552761732398,0.13868686369446587,-0.985091139921393
1653386143457147928,-0.030683094155896127,0.09787745159952056,0.13517940832363323,-0.9854973768441379
1653386143489373480,-0.03003363540435808,0.09893804506761027,0.1311738766885054,-0.9859526652213615
1653386143525307406,-0.029384292493106267,0.09986057425575683,0.12739384790905,-0.986374795186351
1653386143556322242,-0.02866809669064459,0.10072933485227391,0.12352308278476304,-0.9867997716617606
1653386143588473049,-0.027832768105339318,0.10155807173717722,0.1195544641767936,-0.9872274434901113
1653386143623285367,-0.027130820857121218,0.10217391043556091,0.11603855009470748,-0.9876028885528042
1653386143653981618,-0.026550107054423063,0.10253159641098937,0.11408956762995937,-0.9878086525794465
1653386143687902081,-0.025953782816422136,0.10283927860191966,0.11287983685982766,-0.9879314886998256
1653386143720618755,-0.02551727451310017,0.10304239817415009,0.11268178376249516,-0.9879443043451617
1653386143753817653,-0.025050453823399026,0.1030949339969026,0.11344001349853228,-0.9878639950341692
1653386143785794109,-0.024671875212655032,0.10305021475130303,0.1149648383588055,-0.987701897211064
1653386143820520973,-0.02427346152944523,0.10292908637746434,0.11739814532638759,-0.987438138678471
1653386143854056110,-0.02400344297364677,0.1028795537094581,0.12029484341612684,-0.9871012019045682
1653386143885718191,-0.023755247654594584,0.10282755458421262,0.12361389601742151,-0.9867024814697152
1653386143918522958,-0.023478626586427655,0.10281473590579876,0.12744238947837494,-0.9862232615073923
1653386143953549113,-0.023318011982065467,0.10287123625050183,0.13168829580122454,-0.9856632141956333
